time,Gqw,Gqx,Gqy,Gqz,Lqw,Lqx,Lqy,Lqz,rx,ry,rz,lx,ly,lz,ax,ay,az,mx,my,mz,gx,gy,gz,temp
0,0.081048,0.445217,0.814139,0.363856,1,0,0,0,0,0,0,-0.023396,-0.00485,0.000381,0.894952,0.151935,0.372034,-9.86646,15.148283,23.735825,4.130276,-1.614742,-1.09185,7.401752
0.01001,0.08113,0.445197,0.814232,0.363652,1,-0.000238,0.000024,0.000012,-0.000476,0.000048,0.000023,-0.01195,-0.00289,0.001217,0.894582,0.153613,0.370165,-9.86646,15.148283,23.735825,2.32158,-1.475219,-0.88303,7.401752
0.02002,0.081217,0.44519,0.814316,0.363456,1,-0.000467,0.000045,0.000008,-0.000935,0.00009,0.000015,-0.010901,-0.002615,-0.00038,0.896063,0.149511,0.368669,-9.784463,14.972729,23.56637,2.18245,-1.544515,-0.743922,7.576757
0.03003,0.081301,0.445202,0.814394,0.363246,1,-0.000703,0.00008,-0.000015,-0.001407,0.000161,-0.000031,-0.007481,-0.001251,-0.00222,0.895878,0.148952,0.371099,-9.784463,14.972729,23.56637,2.32158,-1.683645,-0.535469,7.639259
0.04004,0.081376,0.44523,0.814468,0.363029,1,-0.000938,0.000132,-0.000049,-0.001876,0.000265,-0.000099,-0.001307,0.001756,-0.00073,0.895508,0.155105,0.374278,-9.374476,14.972729,23.56637,2.460711,-1.683645,-0.327164,7.489254
0.05005,0.081431,0.44529,0.814544,0.362774,0.999999,-0.001193,0.000229,-0.000105,-0.002385,0.000458,-0.000211,-0.000473,0.001124,0.001243,0.895322,0.157156,0.372408,-9.374476,14.972729,23.56637,2.947667,-1.822776,0.02042,7.626759
0.06006,0.08145,0.445384,0.81464,0.362437,0.999999,-0.001503,0.000405,-0.000174,-0.003005,0.00081,-0.000349,0.000874,-0.001854,0.002805,0.892359,0.158648,0.369417,-9.374476,15.148283,23.56637,3.991146,-2.031471,0.298733,7.426753
0.07007,0.081427,0.445505,0.814805,0.361923,0.999998,-0.001961,0.00071,-0.000232,-0.003923,0.001419,-0.000468,-0.001064,0.006391,-0.002786,0.899952,0.156783,0.377082,-9.374476,15.148283,23.56637,6.217233,-2.587993,0.229366,7.364251
0.08008,0.081412,0.445614,0.814914,0.361545,0.999997,-0.002293,0.000939,-0.000298,-0.004587,0.001877,-0.0006,0.000576,0.001438,-0.000913,0.895693,0.157715,0.373717,-9.538471,15.323837,23.990005,4.686798,-1.961906,0.507678,7.514255
0.09009,0.081386,0.445731,0.815028,0.361152,0.999996,-0.002634,0.001188,-0.000365,-0.005269,0.002373,-0.000735,0.000874,-0.001108,-0.000769,0.893471,0.157342,0.372034,-9.538471,15.323837,23.990005,4.895494,-1.961906,0.577149,7.251747
0.1001,0.081358,0.445852,0.815143,0.360748,0.999994,-0.002982,0.001444,-0.000434,-0.005965,0.002884,-0.000876,-0.000988,-0.003842,-0.000976,0.892174,0.154918,0.36923,-9.620468,15.411613,23.651098,4.965059,-2.031471,0.576981,7.65176
0.11011,0.081333,0.445985,0.815263,0.360318,0.999993,-0.003354,0.001713,-0.000515,-0.006709,0.003423,-0.001041,-0.003251,0.000528,-0.001088,0.897359,0.154732,0.369978,-9.620468,15.411613,23.651098,5.24332,-2.240167,0.646524,7.426753
0.12012,0.081332,0.446123,0.815323,0.360012,0.999991,-0.003613,0.001905,-0.000625,-0.007228,0.003806,-0.001263,-0.00293,0.000022,0.000931,0.897545,0.156037,0.367734,-9.046487,15.499391,23.396917,3.712885,-1.892341,0.994475,7.489254
0.13013,0.081328,0.446243,0.815402,0.359684,0.99999,-0.003897,0.002104,-0.000713,-0.007798,0.004203,-0.001442,-0.003079,-0.000668,0.000687,0.897359,0.155478,0.3668,-9.046487,15.499391,23.396917,3.991146,-1.892341,0.716338,7.414252
0.14014,0.08131,0.446366,0.815484,0.359349,0.999988,-0.004182,0.00232,-0.000796,-0.008368,0.004633,-0.001612,-0.001297,0.000446,0.000147,0.897359,0.156783,0.368108,-9.702466,15.323837,23.312191,4.130276,-1.822776,0.785955,7.276748
0.15015,0.08128,0.446501,0.815578,0.358974,0.999986,-0.004498,0.002568,-0.000885,-0.009,0.005128,-0.001793,-0.001459,-0.001169,0.001515,0.896619,0.157156,0.365491,-9.702466,15.323837,23.312191,4.617232,-1.961906,0.855862,7.226747
0.16016,0.081228,0.446648,0.815699,0.358529,0.999984,-0.004869,0.002872,-0.000967,-0.009743,0.005734,-0.001962,0.000452,-0.003565,0.005141,0.894211,0.160512,0.361378,-9.456473,15.148283,23.651098,5.52158,-2.101037,0.856276,7.464254
0.17017,0.08113,0.446821,0.81589,0.3579,0.999979,-0.005392,0.00331,-0.001039,-0.010792,0.00661,-0.002113,0.000299,0.002059,0.001692,0.89847,0.160699,0.366052,-9.456473,15.148283,23.651098,7.817233,-2.657558,0.787415,7.364251
0.18018,0.081029,0.447002,0.816067,0.357292,0.999975,-0.005892,0.003743,-0.001119,-0.011793,0.007472,-0.002283,0.001824,0.000342,0.002033,0.896433,0.162004,0.36493,-9.456473,15.499391,23.227463,7.538972,-2.587993,0.927393,7.301749
0.19019,0.080921,0.447216,0.816276,0.356571,0.999969,-0.00649,0.004247,-0.00122,-0.012992,0.008478,-0.002495,0.003308,-0.002253,0.002435,0.893471,0.163123,0.363061,-9.456473,15.499391,23.227463,8.791145,-3.21408,0.997659,7.151744
0.2002,0.080754,0.447465,0.816579,0.355601,0.99996,-0.007296,0.00493,-0.001306,-0.014605,0.009841,-0.002683,0.001823,-0.000559,-0.000067,0.895322,0.161817,0.364182,-9.374476,15.587168,23.312191,11.852015,-3.979297,0.859445,7.389251
0.21021,0.080524,0.447753,0.816923,0.354499,0.999949,-0.008192,0.00574,-0.001392,-0.016401,0.011457,-0.002878,0.004201,-0.002602,0.001056,0.892359,0.164428,0.362313,-9.374476,15.587168,23.312191,13.591146,-4.187993,1.138694,7.601758
0.22022,0.080249,0.448078,0.817311,0.353255,0.999934,-0.009198,0.006668,-0.001486,-0.018416,0.013308,-0.003094,0.008189,0.001767,0.001116,0.893471,0.170208,0.365491,-9.292479,15.674945,23.396917,15.399841,-4.605384,1.347389,7.364251
0.23023,0.079906,0.448443,0.817776,0.351791,0.999915,-0.010376,0.007769,-0.00157,-0.020778,0.015506,-0.003301,0.008876,0.006761,0.002613,0.89773,0.175429,0.366426,-9.292479,15.674945,23.396917,18.182449,-5.161906,1.416954,7.501755
0.24024,0.079611,0.448756,0.818176,0.350525,0.999896,-0.011396,0.008719,-0.001641,-0.022823,0.0174,-0.00348,0.022183,0.014715,-0.004815,0.894952,0.185125,0.382877,-9.538471,15.674945,23.396917,15.817232,-4.466254,1.277824,7.514255
0.25025,0.079368,0.449065,0.818547,0.349316,0.999876,-0.012381,0.009598,-0.001737,-0.0248,0.019152,-0.003712,0.014411,0.003568,-0.002465,0.890878,0.179158,0.371847,-9.538471,15.674945,23.396917,14.84332,-4.67495,1.208259,7.226747
0.26026,0.079178,0.449393,0.818835,0.348263,0.999857,-0.013233,0.010364,-0.001892,-0.02651,0.020677,-0.004059,0.004323,-0.004252,-0.001766,0.890508,0.170581,0.361939,-9.456473,15.850498,23.227463,12.756363,-4.535819,1.695215,7.464254
0.27027,0.078994,0.449712,0.819099,0.347269,0.999838,-0.01403,0.011095,-0.002048,-0.028111,0.02213,-0.004408,-0.0018,-0.004426,0.000045,0.894396,0.167784,0.356518,-9.456473,15.850498,23.227463,12.060711,-4.257558,1.764781,7.264247
0.28028,0.078838,0.450019,0.819332,0.346356,0.999819,-0.014764,0.011758,-0.002212,-0.029587,0.023449,-0.004771,0.003214,0.000877,-0.002881,0.895322,0.1717,0.362874,-9.456473,16.289383,22.803829,11.017233,-4.118428,1.764781,7.539256
0.29029,0.078744,0.45034,0.819496,0.345572,0.999803,-0.015394,0.012314,-0.002429,-0.030855,0.02455,-0.005237,0.014658,0.011726,0.001575,0.89847,0.187549,0.369791,-9.456473,16.289383,22.803829,9.278102,-4.118428,2.182172,7.151744
0.3003,0.078706,0.450685,0.819573,0.344947,0.999789,-0.015885,0.012755,-0.002713,-0.031849,0.025421,-0.005832,0.019187,0.010377,0.008305,0.896248,0.195939,0.365678,-9.210482,16.201607,22.888557,7.191145,-3.979297,2.808259,7.364251
0.31031,0.078661,0.451053,0.819612,0.344384,0.999776,-0.016309,0.013179,-0.003024,-0.032707,0.026257,-0.006479,0.017621,0.004738,0.021762,0.895322,0.203025,0.350909,-9.210482,16.201607,22.888557,6.495493,-3.701036,3.295215,7.214246
0.32032,0.078608,0.451427,0.81964,0.343838,0.999762,-0.016709,0.013603,-0.003341,-0.03352,0.027092,-0.007137,0.013687,-0.001937,0.028685,0.893656,0.20377,0.338945,-9.046487,16.026052,22.719103,6.286798,-3.561906,3.434346,7.264247
0.33033,0.078582,0.451725,0.81972,0.343261,0.999748,-0.017172,0.013997,-0.003585,-0.034456,0.027868,-0.007653,0.011249,-0.005313,0.027604,0.892174,0.201533,0.335206,-9.046487,16.026052,22.719103,6.565059,-3.631471,2.321302,7.376751
0.34034,0.078653,0.451979,0.819812,0.34269,0.999734,-0.017682,0.014293,-0.003823,-0.035487,0.028447,-0.008154,0.015728,0.00246,0.021363,0.894767,0.204889,0.344366,-8.964489,16.026052,22.973284,6.078102,-4.327124,1.48652,7.551756
0.35035,0.078916,0.452217,0.81986,0.342203,0.999722,-0.018194,0.014386,-0.004131,-0.036519,0.028617,-0.008786,0.025787,0.009015,0.020674,0.894211,0.215517,0.35147,-8.964489,16.026052,22.973284,4.130276,-5.648863,0.929998,7.401752
0.36036,0.079248,0.452467,0.819907,0.341682,0.99971,-0.018762,0.014442,-0.004476,-0.037667,0.028712,-0.009496,0.024326,0.005968,0.015404,0.891804,0.211602,0.352218,-9.210482,16.289383,22.719103,4.060711,-6.55321,0.721302,7.376751
0.37037,0.079543,0.452748,0.820024,0.340959,0.999691,-0.019502,0.014636,-0.004819,-0.03916,0.029079,-0.01021,0.016263,-0.000927,0.017173,0.891434,0.206008,0.34231,-9.210482,16.289383,22.719103,6.425928,-7.318428,0.582172,7.326749
0.38038,0.079778,0.453024,0.820239,0.340018,0.999666,-0.020429,0.014982,-0.00511,-0.041028,0.029749,-0.010834,0.00632,-0.002655,0.007739,0.894396,0.193515,0.342497,-9.210482,16.289383,22.464922,9.138971,-7.805385,0.02565,7.276748
0.39039,0.079971,0.453272,0.820516,0.338972,0.999637,-0.021447,0.015403,-0.005344,-0.043077,0.03057,-0.01135,0.000233,-0.006284,-0.002238,0.893471,0.182328,0.343992,-9.210482,16.289383,22.464922,10.530276,-7.805385,-0.530872,7.376751
0.4004,0.080166,0.453506,0.820832,0.337846,0.999605,-0.022547,0.015856,-0.005555,-0.04529,0.031455,-0.011827,0.006811,-0.001228,-0.008043,0.892915,0.18587,0.352405,-8.882492,16.552713,22.295469,11.434624,-8.153211,-0.948263,7.551756
0.41041,0.080411,0.453761,0.821082,0.336838,0.999574,-0.023547,0.016219,-0.005823,-0.047304,0.032155,-0.012411,0.014891,0.001552,-0.004673,0.891248,0.195566,0.353526,-8.882492,16.552713,22.295469,9.834624,-8.153211,-0.461306,7.639259
0.42042,0.080719,0.454045,0.821247,0.335978,0.999547,-0.024421,0.016468,-0.006162,-0.049068,0.032625,-0.01313,0.022791,0.005517,0.002091,0.891248,0.207873,0.352592,-9.210482,16.201607,22.210743,7.817233,-8.153211,0.16478,7.326749
0.43043,0.081079,0.45433,0.821341,0.335276,0.999524,-0.025163,0.016598,-0.00654,-0.050568,0.032857,-0.013917,0.01728,0.008091,0.010094,0.898285,0.211042,0.343992,-9.210482,16.201607,22.210743,5.799841,-7.874949,0.512607,7.226747
0.44044,0.081479,0.454577,0.821398,0.334704,0.999505,-0.025808,0.016622,-0.006907,-0.051871,0.032877,-0.014674,0.00899,0.007934,0.010101,0.90347,0.206008,0.338945,-9.046487,16.552713,22.126015,4.199841,-7.457558,0.303911,7.639259
0.45045,0.081923,0.454775,0.821447,0.334206,0.999488,-0.026413,0.016558,-0.007249,-0.053093,0.032723,-0.015374,0.0009,-0.00277,0.011399,0.900137,0.197804,0.327728,-9.046487,16.552713,22.126015,3.156363,-7.318428,-0.252611,7.376751
0.46046,0.082431,0.45492,0.821479,0.333806,0.999474,-0.026965,0.016378,-0.00757,-0.054204,0.032336,-0.016024,-0.005432,-0.017796,0.015733,0.892545,0.190905,0.312585,-8.964489,16.289383,21.617655,1.695493,-7.248863,-0.878698,7.439253
0.47047,0.083067,0.455042,0.821479,0.333479,0.999461,-0.027504,0.01605,-0.007927,-0.055289,0.031653,-0.016738,-0.00764,-0.028869,0.021963,0.885878,0.189413,0.299312,-8.964489,16.289383,21.617655,0.165059,-8.01408,-1.365654,7.364251
0.48048,0.083808,0.455157,0.821463,0.333177,0.999449,-0.028065,0.015622,-0.008323,-0.056416,0.030764,-0.017522,-0.009765,-0.02856,0.026459,0.8881,0.191091,0.292582,-8.964489,16.377161,21.956562,-0.669724,-8.848863,-1.71348,7.501755
0.49049,0.084646,0.455328,0.821403,0.332879,0.999436,-0.028645,0.015129,-0.008817,-0.057582,0.029741,-0.018501,-0.012195,-0.017377,0.032866,0.899952,0.197804,0.289217,-8.964489,16.377161,21.956562,-1.295811,-9.961906,-1.296089,7.551756
0.5005,0.085569,0.455588,0.82133,0.332467,0.999418,-0.029344,0.014651,-0.00943,-0.058988,0.028734,-0.019719,-0.019175,-0.008348,0.027046,0.911063,0.192769,0.292021,-8.964489,16.728268,21.871836,-0.600159,-11.701036,-0.809133,7.164245
0.51051,0.08653,0.455942,0.821291,0.33183,0.999389,-0.030247,0.014277,-0.010137,-0.060808,0.027927,-0.021136,-0.009506,0.000484,0.011456,0.911063,0.193142,0.309781,-8.964489,16.728268,21.871836,1.556363,-13.579297,-0.461306,7.414252
0.52052,0.087467,0.456335,0.821425,0.33071,0.999342,-0.031593,0.014167,-0.010829,-0.063519,0.027634,-0.02255,0.007206,0.016422,-0.009267,0.912174,0.198363,0.338197,-8.636499,16.552713,21.787109,6.98245,-15.874949,-1.365654,7.35175
0.53053,0.088322,0.456769,0.821549,0.329574,0.999292,-0.032909,0.014145,-0.01153,-0.066171,0.027514,-0.023987,0.015371,0.010296,-0.019366,0.901804,0.196126,0.34474,-8.636499,16.552713,21.787109,7.538972,-15.387993,-0.670002,7.501755
0.54054,0.08909,0.457182,0.821696,0.328426,0.99924,-0.034205,0.014192,-0.012174,-0.068784,0.027534,-0.025314,0.021221,0.007706,-0.028932,0.895508,0.193888,0.351844,-8.636499,16.640491,21.956562,8.165059,-14.55321,-0.670002,7.439253
0.55055,0.08983,0.457502,0.821808,0.327497,0.999196,-0.035306,0.014129,-0.012729,-0.071001,0.027341,-0.026448,0.020996,0.016722,-0.026357,0.904026,0.199295,0.352592,-8.636499,16.640491,21.956562,6.078102,-12.81408,-1.017828,7.264247
0.56056,0.090621,0.457701,0.821827,0.326952,0.999166,-0.036092,0.013802,-0.013215,-0.072578,0.026629,-0.027418,0.025582,0.026241,-0.01847,0.911063,0.211602,0.352031,-8.554502,16.640491,21.278748,1.695493,-10.93582,-1.43522,7.526756
0.57057,0.091444,0.457651,0.821919,0.326561,0.999143,-0.036814,0.013295,-0.013464,-0.074015,0.025579,-0.027896,0.011578,0.023209,-0.017099,0.917359,0.202465,0.342497,-8.554502,16.640491,21.278748,0.095493,-9.405384,-4.148263,7.564257
0.58058,0.092306,0.457512,0.821968,0.326391,0.999129,-0.037366,0.012622,-0.013657,-0.075103,0.024205,-0.028246,-0.017861,-0.006997,-0.025979,0.90847,0.16536,0.321371,-8.718497,16.552713,21.448202,-2.547985,-8.361906,-4.77435,7.251747
0.59059,0.09327,0.457529,0.821794,0.326531,0.999124,-0.037617,0.011767,-0.014087,-0.075591,0.022456,-0.029046,-0.023685,-0.004436,-0.018431,0.915507,0.166292,0.312959,-8.718497,16.552713,21.448202,-6.652333,-8.501037,-2.200437,7.364251
0.6006,0.09421,0.457584,0.821555,0.326785,0.999122,-0.037737,0.01089,-0.01456,-0.075814,0.020664,-0.029927,-0.0418,-0.012335,-0.011961,0.920877,0.1538,0.294825,-8.718497,16.640491,21.363474,-7.834941,-7.874949,-1.296089,7.264247
0.61061,0.095202,0.457624,0.821252,0.327202,0.999126,-0.037726,0.009886,-0.015055,-0.075769,0.01862,-0.030839,-0.063273,-0.017472,-0.01316,0.929395,0.134781,0.282113,-8.718497,16.640491,21.363474,-9.921898,-7.527123,-1.156959,7.751762
0.62062,0.096229,0.457655,0.820901,0.327739,0.999132,-0.037615,0.008794,-0.015566,-0.07552,0.016402,-0.031777,-0.077277,-0.024944,-0.01563,0.931617,0.118932,0.272578,-8.554502,16.464937,21.194021,-11.452332,-7.248863,-1.017828,7.526756
0.63063,0.097309,0.457637,0.82048,0.3285,0.999146,-0.037325,0.007534,-0.01607,-0.074905,0.013857,-0.032685,-0.085842,-0.029728,-0.020724,0.932543,0.10588,0.268839,-8.554502,16.464937,21.194021,-14.165377,-6.483645,-1.087393,7.589258
0.64064,0.098406,0.457531,0.820005,0.329506,0.999166,-0.03683,0.006117,-0.016513,-0.073872,0.011008,-0.033457,-0.084003,-0.037365,-0.022646,0.925506,0.100845,0.266409,-8.226513,16.464937,20.93984,-16.87842,-5.092341,-1.43522,7.464254
0.65065,0.09953,0.457307,0.819486,0.330767,0.999194,-0.036133,0.004517,-0.016869,-0.072426,0.007808,-0.034044,-0.067789,-0.041622,-0.02379,0.912914,0.107558,0.272017,-8.226513,16.464937,20.93984,-19.730593,-3.631471,-2.130872,7.35175
0.66066,0.100753,0.45698,0.818768,0.332623,0.999238,-0.034932,0.002518,-0.017216,-0.069955,0.003829,-0.03459,-0.043475,-0.031615,-0.005411,0.909951,0.137578,0.2737,-8.554502,15.938275,21.024567,-26.687115,-1.266254,-1.71348,7.426753
0.67067,0.102277,0.456533,0.817933,0.334818,0.999282,-0.033556,0.000069,-0.017601,-0.067117,-0.001043,-0.035189,-0.011876,-0.01073,0.019717,0.912729,0.181582,0.279121,-8.554502,15.938275,21.024567,-31.974072,-1.961906,-2.896089,7.126743
0.68068,0.104174,0.456001,0.816824,0.337653,0.999328,-0.031732,-0.00302,-0.018123,-0.063356,-0.007187,-0.036038,0.002264,0.004092,0.014647,0.916248,0.191837,0.297255,-8.636499,16.026052,21.278748,-41.017551,-2.101037,-2.896089,7.464254
0.69069,0.106189,0.455396,0.815631,0.340711,0.999363,-0.029754,-0.00634,-0.018647,-0.059275,-0.013782,-0.036904,-0.014101,0.00515,-0.007518,0.923469,0.164801,0.307537,-8.636499,16.026052,21.278748,-44.147984,-1.892341,-3.383046,7.226747
0.7007,0.107799,0.454904,0.814748,0.342968,0.999377,-0.028352,-0.008906,-0.019041,-0.056369,-0.018882,-0.037569,-0.058751,-0.008604,-0.000575,0.938839,0.13273,0.274261,-8.308511,15.499391,21.448202,-33.226246,-2.309732,-3.383046,7.164245
0.71071,0.109181,0.454682,0.813777,0.345125,0.999384,-0.026876,-0.01115,-0.019621,-0.053321,-0.023344,-0.038638,-0.102709,-0.04772,0.084012,0.943839,0.143731,0.170131,-8.308511,15.499391,21.448202,-31.208855,-1.822776,0.373476,7.501755
0.72072,0.110472,0.454629,0.812798,0.347085,0.999381,-0.025503,-0.013173,-0.020325,-0.050479,-0.02737,-0.039978,-0.129286,-0.07462,0.170812,0.949394,0.173378,0.077032,-8.390508,15.411613,21.532928,-28.774073,-2.657558,2.112607,7.301749
0.73073,0.112978,0.454545,0.811234,0.350036,0.999347,-0.023654,-0.016684,-0.021625,-0.046599,-0.034377,-0.04247,-0.426716,-0.110155,0.143674,0.985504,0.119491,0.095165,-8.390508,15.411613,21.532928,-46.652332,-9.405384,1.277824,7.67676
0.74074,0.115983,0.454391,0.809193,0.353954,0.999286,-0.021072,-0.021096,-0.023184,-0.041185,-0.043153,-0.045504,-0.41511,-0.10889,0.162226,0.982727,0.138696,0.087875,-8.472505,15.060506,21.871836,-60.217552,-9.335819,2.390867,7.401752
0.75075,0.119078,0.454032,0.807765,0.356639,0.999192,-0.019774,-0.025058,-0.024437,-0.03835,-0.051064,-0.047924,-0.403421,-0.080128,0.157402,0.999207,0.152681,0.109373,-8.472505,15.060506,21.871836,-47.069725,-14.970602,-4.704785,7.514255
0.76076,0.122973,0.453269,0.805972,0.360325,0.999049,-0.017916,-0.030293,-0.025732,-0.03431,-0.06149,-0.050447,-0.395001,-0.090807,0.104398,0.979023,0.118186,0.145267,-8.636499,14.884953,21.532928,-62.513203,-16.01408,-8.461307,7.66426
0.77077,0.126983,0.452493,0.804277,0.363681,0.99887,-0.016415,-0.035472,-0.027041,-0.030959,-0.071813,-0.053019,-0.352846,-0.077694,0.047426,0.959394,0.109609,0.212007,-8.636499,14.884953,21.532928,-59.66103,-18.657558,-10.061307,7.401752
0.78078,0.130919,0.451837,0.802696,0.366583,0.998665,-0.015283,-0.040335,-0.028409,-0.028331,-0.08152,-0.055723,-0.3167,-0.061075,0.024475,0.950691,0.121169,0.252949,-8.308511,14.533844,22.295469,-54.374073,-20.67495,-9.852611,7.464254
0.79079,0.134948,0.451248,0.80103,0.36948,0.998427,-0.01416,-0.045254,-0.029902,-0.025679,-0.091339,-0.058706,-0.293034,-0.056126,0.005434,0.940136,0.123034,0.278935,-8.308511,14.533844,22.295469,-55.069725,-21.996689,-9.226524,7.489254
0.8008,0.138809,0.450768,0.799554,0.371824,0.998178,-0.013472,-0.049736,-0.031384,-0.023896,-0.100304,-0.061662,-0.281706,-0.060626,0.036359,0.93458,0.15007,0.259118,-8.226513,14.270514,22.464922,-48.182766,-23.457558,-9.296089,7.139244
0.81081,0.142154,0.450317,0.79861,0.373135,0.997956,-0.013587,-0.053283,-0.032547,-0.02379,-0.107439,-0.063925,-0.275059,-0.034179,0.044737,0.954394,0.168903,0.266596,-8.226513,14.270514,22.464922,-33.713203,-23.318428,-11.17435,7.264247
0.82082,0.145182,0.45009,0.797441,0.37474,0.997733,-0.013222,-0.05664,-0.033854,-0.022698,-0.114167,-0.066539,-0.277387,-0.04141,0.053939,0.951431,0.171327,0.253323,-7.980521,13.656075,23.05801,-35.313202,-20.187994,-6.096089,7.314249
0.83083,0.148633,0.449632,0.795795,0.377426,0.997446,-0.012009,-0.060946,-0.035252,-0.019811,-0.122735,-0.069438,-0.284832,-0.060267,0.055208,0.940691,0.160699,0.237806,-7.980521,13.656075,23.05801,-49.852333,-18.309732,-5.817828,7.176745
0.84084,0.151823,0.449166,0.794514,0.379405,0.997174,-0.01139,-0.064698,-0.036444,-0.018156,-0.130228,-0.071877,-0.328309,-0.067544,0.096707,0.963283,0.16275,0.179479,-7.980521,13.392744,22.973284,-40.530594,-18.866255,-7.835219,7.301749
